# Electron Anti-Neutrino Energy (MeV) - IBD Cross Section (10^(-38) cm^2)
1 0
2 3.2569e-06
3 2.6053e-05
4 6.6892e-05
5 0.00012551
6 0.0002015
7 0.00029444
8 0.00040394
9 0.00052959
10 0.000671
11 0.00082779
12 0.00099959
13 0.001186
14 0.0013867
15 0.0016013
16 0.0018295
17 0.0020709
18 0.0023252
19 0.002592
20 0.002871
21 0.0031619
22 0.0034644
23 0.0037782
24 0.004103
25 0.0044384
26 0.0047842
27 0.0051402
28 0.0055059
29 0.0058811
30 0.0062657
31 0.0066592
32 0.0070615
33 0.0074723
34 0.0078913
35 0.0083183
36 0.008753
37 0.0091953
38 0.0096449
39 0.010101
40 0.010565
41 0.011035
42 0.011511
43 0.011994
44 0.012483
45 0.012977
46 0.013477
47 0.013983
48 0.014494
49 0.015009
50 0.01553
51 0.016055
52 0.016585
53 0.01712
54 0.017658
55 0.0182
56 0.018747
57 0.019297
58 0.01985
59 0.020407
60 0.020968
61 0.021531
62 0.022098
63 0.022667
64 0.023239
65 0.023814
66 0.024391
67 0.024971
68 0.025553
69 0.026137
70 0.026723
71 0.027311
72 0.027901
73 0.028492
74 0.029085
75 0.02968
76 0.030276
77 0.030874
78 0.031473
79 0.032073
80 0.032674
81 0.033276
82 0.033879
83 0.034482
84 0.035087
85 0.035692
86 0.036298
87 0.036904
88 0.037511
89 0.038118
90 0.038726
91 0.039334
92 0.039942
93 0.04055
94 0.041159
95 0.041767
96 0.042376
97 0.042984
98 0.043593
99 0.044201
100 0.044809
101 0.045417
102 0.046024
103 0.046631
104 0.047238
105 0.047845
106 0.048451
107 0.049056
108 0.049661
109 0.050266
110 0.05087
111 0.051473
112 0.052076
113 0.052678
114 0.05328
115 0.05388
116 0.05448
117 0.055079
118 0.055678
119 0.056275
120 0.056872
121 0.057468
122 0.058063
123 0.058657
124 0.059251
125 0.059843
126 0.060434
127 0.061025
128 0.061614
129 0.062203
130 0.062791
131 0.063377
132 0.063963
133 0.064547
134 0.065131
135 0.065713
136 0.066295
137 0.066875
138 0.067454
139 0.068032
140 0.06861
141 0.069186
142 0.069761
143 0.070335
144 0.070907
145 0.071479
146 0.07205
147 0.072619
148 0.073187
149 0.073755
150 0.074321
151 0.074886
152 0.07545
153 0.076013
154 0.076575
155 0.077135
156 0.077695
157 0.078253
158 0.078811
159 0.079367
160 0.079922
161 0.080476
162 0.081029
163 0.081581
164 0.082131
165 0.082681
166 0.08323
167 0.083777
168 0.084324
169 0.084869
170 0.085413
171 0.085957
172 0.086499
173 0.08704
174 0.08758
175 0.088119
176 0.088658
177 0.089195
178 0.089731
179 0.090266
180 0.0908
181 0.091333
182 0.091865
183 0.092396
184 0.092926
185 0.093455
186 0.093983
187 0.094511
188 0.095037
189 0.095562
190 0.096087
191 0.09661
192 0.097133
193 0.097654
194 0.098175
195 0.098695
196 0.099214
197 0.099732
198 0.10025
199 0.10077
200 0.10128
