# Electron Anti Neutrino Energy (MeV) - IBD Cross Section Per Cos(ThetaNuEl) At -0.95:0.1:0.95
1 0 0 0 0 0 0 0 0 0 0 0 0 0 0 0 0 0 0 0 0
2 2.7421e-07 2.7265e-07 2.7108e-07 2.6951e-07 2.6794e-07 2.6636e-07 2.6478e-07 2.632e-07 2.6161e-07 2.6002e-07 2.5843e-07 2.5683e-07 2.5524e-07 2.5363e-07 2.5203e-07 2.5042e-07 2.4881e-07 2.472e-07 2.4558e-07 2.4396e-07
3 2.2342e-06 2.2175e-06 2.2007e-06 2.1839e-06 2.1671e-06 2.1502e-06 2.1333e-06 2.1163e-06 2.0994e-06 2.0823e-06 2.0653e-06 2.0482e-06 2.0311e-06 2.0139e-06 1.9967e-06 1.9795e-06 1.9623e-06 1.945e-06 1.9276e-06 1.9103e-06
4 5.7143e-06 5.6738e-06 5.6331e-06 5.5924e-06 5.5515e-06 5.5106e-06 5.4695e-06 5.4283e-06 5.387e-06 5.3456e-06 5.3041e-06 5.2625e-06 5.2208e-06 5.179e-06 5.137e-06 5.095e-06 5.0528e-06 5.0106e-06 4.9682e-06 4.9257e-06
5 1.0661e-05 1.0592e-05 1.0522e-05 1.0452e-05 1.0382e-05 1.0311e-05 1.0241e-05 1.017e-05 1.0099e-05 1.0027e-05 9.9559e-06 9.8841e-06 9.812e-06 9.7398e-06 9.6673e-06 9.5945e-06 9.5216e-06 9.4484e-06 9.3749e-06 9.3013e-06
6 1.7012e-05 1.6911e-05 1.681e-05 1.6709e-05 1.6607e-05 1.6505e-05 1.6403e-05 1.63e-05 1.6197e-05 1.6093e-05 1.5989e-05 1.5885e-05 1.578e-05 1.5675e-05 1.5569e-05 1.5463e-05 1.5357e-05 1.525e-05 1.5143e-05 1.5035e-05
7 2.4702e-05 2.4572e-05 2.4441e-05 2.4309e-05 2.4177e-05 2.4045e-05 2.3911e-05 2.3778e-05 2.3643e-05 2.3508e-05 2.3373e-05 2.3237e-05 2.31e-05 2.2963e-05 2.2825e-05 2.2686e-05 2.2547e-05 2.2407e-05 2.2267e-05 2.2126e-05
8 3.3672e-05 3.3515e-05 3.3359e-05 3.3201e-05 3.3043e-05 3.2883e-05 3.2724e-05 3.2563e-05 3.2401e-05 3.2239e-05 3.2076e-05 3.1912e-05 3.1747e-05 3.1582e-05 3.1415e-05 3.1248e-05 3.108e-05 3.0911e-05 3.0742e-05 3.0571e-05
9 4.3861e-05 4.3686e-05 4.351e-05 4.3333e-05 4.3155e-05 4.2976e-05 4.2796e-05 4.2616e-05 4.2434e-05 4.2251e-05 4.2067e-05 4.1883e-05 4.1697e-05 4.151e-05 4.1323e-05 4.1134e-05 4.0944e-05 4.0754e-05 4.0562e-05 4.0369e-05
10 5.5211e-05 5.5027e-05 5.4841e-05 5.4654e-05 5.4467e-05 5.4278e-05 5.4088e-05 5.3897e-05 5.3705e-05 5.3512e-05 5.3318e-05 5.3122e-05 5.2926e-05 5.2728e-05 5.2529e-05 5.2329e-05 5.2128e-05 5.1926e-05 5.1722e-05 5.1518e-05
11 6.7666e-05 6.7484e-05 6.7301e-05 6.7117e-05 6.6932e-05 6.6745e-05 6.6558e-05 6.6369e-05 6.6179e-05 6.5988e-05 6.5796e-05 6.5603e-05 6.5409e-05 6.5213e-05 6.5016e-05 6.4819e-05 6.462e-05 6.4419e-05 6.4218e-05 6.4015e-05
12 8.1171e-05 8.1006e-05 8.084e-05 8.0673e-05 8.0505e-05 8.0335e-05 8.0165e-05 7.9994e-05 7.9822e-05 7.9649e-05 7.9474e-05 7.9299e-05 7.9123e-05 7.8945e-05 7.8767e-05 7.8588e-05 7.8407e-05 7.8226e-05 7.8043e-05 7.786e-05
13 9.5672e-05 9.554e-05 9.5408e-05 9.5275e-05 9.5141e-05 9.5006e-05 9.4871e-05 9.4735e-05 9.4598e-05 9.4461e-05 9.4322e-05 9.4184e-05 9.4044e-05 9.3904e-05 9.3763e-05 9.3622e-05 9.3479e-05 9.3336e-05 9.3193e-05 9.3049e-05
14 0.00011112 0.00011104 0.00011096 0.00011088 0.0001108 0.00011072 0.00011064 0.00011055 0.00011047 0.00011039 0.00011031 0.00011023 0.00011015 0.00011007 0.00010999 0.00010991 0.00010982 0.00010974 0.00010966 0.00010958
15 0.00012745 0.00012745 0.00012744 0.00012743 0.00012743 0.00012743 0.00012742 0.00012742 0.00012742 0.00012741 0.00012741 0.00012741 0.00012742 0.00012742 0.00012742 0.00012743 0.00012743 0.00012744 0.00012745 0.00012745
16 0.00014464 0.00014472 0.00014481 0.0001449 0.000145 0.00014509 0.00014519 0.00014529 0.00014539 0.0001455 0.0001456 0.00014571 0.00014582 0.00014593 0.00014605 0.00014617 0.00014629 0.00014641 0.00014654 0.00014667
17 0.00016261 0.00016282 0.00016303 0.00016324 0.00016346 0.00016368 0.00016391 0.00016414 0.00016437 0.00016461 0.00016485 0.00016509 0.00016534 0.0001656 0.00016585 0.00016612 0.00016639 0.00016666 0.00016694 0.00016722
18 0.00018134 0.00018169 0.00018205 0.00018241 0.00018278 0.00018315 0.00018353 0.00018392 0.00018431 0.00018471 0.00018512 0.00018553 0.00018596 0.00018638 0.00018682 0.00018726 0.00018771 0.00018817 0.00018863 0.00018911
19 0.00020077 0.00020129 0.00020182 0.00020236 0.00020291 0.00020347 0.00020404 0.00020461 0.0002052 0.00020579 0.0002064 0.00020701 0.00020764 0.00020828 0.00020892 0.00020958 0.00021025 0.00021093 0.00021162 0.00021233
20 0.00022086 0.00022158 0.00022232 0.00022306 0.00022382 0.00022459 0.00022538 0.00022618 0.00022699 0.00022781 0.00022865 0.00022951 0.00023037 0.00023126 0.00023215 0.00023307 0.000234 0.00023494 0.0002359 0.00023688
21 0.00024156 0.00024252 0.00024349 0.00024447 0.00024547 0.00024649 0.00024753 0.00024858 0.00024966 0.00025075 0.00025186 0.00025299 0.00025414 0.0002553 0.00025649 0.0002577 0.00025894 0.00026019 0.00026146 0.00026276
22 0.00026284 0.00026406 0.00026529 0.00026655 0.00026783 0.00026913 0.00027045 0.0002718 0.00027317 0.00027457 0.00027599 0.00027743 0.0002789 0.0002804 0.00028193 0.00028348 0.00028506 0.00028667 0.00028831 0.00028998
23 0.00028466 0.00028616 0.0002877 0.00028926 0.00029085 0.00029247 0.00029412 0.00029579 0.0002975 0.00029924 0.00030101 0.00030282 0.00030466 0.00030653 0.00030843 0.00031038 0.00031235 0.00031437 0.00031642 0.00031851
24 0.00030697 0.0003088 0.00031067 0.00031257 0.0003145 0.00031648 0.00031849 0.00032054 0.00032262 0.00032475 0.00032691 0.00032912 0.00033137 0.00033366 0.000336 0.00033838 0.00034081 0.00034328 0.00034581 0.00034838
25 0.00032973 0.00033193 0.00033416 0.00033644 0.00033876 0.00034112 0.00034354 0.000346 0.0003485 0.00035106 0.00035366 0.00035632 0.00035903 0.00036179 0.00036461 0.00036748 0.00037041 0.0003734 0.00037645 0.00037957
26 0.00035292 0.00035551 0.00035814 0.00036083 0.00036358 0.00036638 0.00036923 0.00037214 0.00037511 0.00037814 0.00038124 0.00038439 0.00038761 0.00039089 0.00039425 0.00039767 0.00040116 0.00040472 0.00040836 0.00041207
27 0.00037649 0.00037951 0.00038258 0.00038573 0.00038893 0.0003922 0.00039554 0.00039895 0.00040243 0.00040598 0.00040961 0.00041331 0.00041709 0.00042095 0.00042489 0.00042892 0.00043303 0.00043723 0.00044152 0.0004459
28 0.00040041 0.00040389 0.00040745 0.00041108 0.00041478 0.00041857 0.00042244 0.00042639 0.00043042 0.00043455 0.00043876 0.00044306 0.00044745 0.00045195 0.00045654 0.00046123 0.00046602 0.00047092 0.00047593 0.00048105
29 0.00042465 0.00042863 0.0004327 0.00043686 0.00044111 0.00044545 0.00044989 0.00045443 0.00045907 0.00046381 0.00046866 0.00047361 0.00047868 0.00048386 0.00048916 0.00049458 0.00050012 0.00050578 0.00051158 0.00051751
30 0.00044917 0.00045369 0.00045831 0.00046304 0.00046787 0.00047282 0.00047788 0.00048305 0.00048834 0.00049375 0.00049929 0.00050495 0.00051075 0.00051667 0.00052274 0.00052895 0.00053531 0.00054181 0.00054847 0.00055529
31 0.00047394 0.00047904 0.00048425 0.00048959 0.00049505 0.00050064 0.00050636 0.00051221 0.00051821 0.00052434 0.00053062 0.00053705 0.00054363 0.00055037 0.00055728 0.00056435 0.00057158 0.000579 0.0005866 0.00059438
32 0.00049893 0.00050464 0.00051049 0.00051648 0.00052261 0.00052889 0.00053532 0.0005419 0.00054865 0.00055556 0.00056264 0.00056989 0.00057732 0.00058494 0.00059274 0.00060074 0.00060894 0.00061734 0.00062595 0.00063478
33 0.00052412 0.00053048 0.000537 0.00054368 0.00055052 0.00055753 0.00056472 0.00057209 0.00057964 0.00058738 0.00059532 0.00060345 0.0006118 0.00062035 0.00062912 0.00063812 0.00064735 0.00065681 0.00066652 0.00067649
34 0.00054946 0.00055652 0.00056374 0.00057116 0.00057876 0.00058655 0.00059455 0.00060275 0.00061116 0.00061978 0.00062863 0.00063772 0.00064703 0.0006566 0.00066641 0.00067648 0.00068682 0.00069743 0.00070832 0.0007195
35 0.00057495 0.00058273 0.00059071 0.0005989 0.0006073 0.00061592 0.00062477 0.00063385 0.00064317 0.00065274 0.00066257 0.00067266 0.00068302 0.00069365 0.00070458 0.0007158 0.00072732 0.00073916 0.00075133 0.00076382
36 0.00060054 0.00060909 0.00061786 0.00062686 0.00063611 0.00064561 0.00065536 0.00066538 0.00067567 0.00068624 0.0006971 0.00070826 0.00071973 0.00073151 0.00074362 0.00075607 0.00076887 0.00078202 0.00079554 0.00080945
37 0.00062622 0.00063557 0.00064517 0.00065503 0.00066517 0.00067559 0.0006863 0.0006973 0.00070862 0.00072025 0.00073221 0.0007445 0.00075714 0.00077015 0.00078352 0.00079728 0.00081143 0.00082599 0.00084096 0.00085638
38 0.00065196 0.00066214 0.00067262 0.00068339 0.00069446 0.00070585 0.00071756 0.00072961 0.000742 0.00075475 0.00076787 0.00078136 0.00079525 0.00080955 0.00082426 0.00083941 0.000855 0.00087105 0.00088758 0.0009046
39 0.00067773 0.00068879 0.00070018 0.00071189 0.00072395 0.00073635 0.00074912 0.00076226 0.00077579 0.00078972 0.00080406 0.00081883 0.00083403 0.0008497 0.00086583 0.00088245 0.00089957 0.00091722 0.00093539 0.00095413
40 0.00070351 0.00071549 0.00072783 0.00074053 0.00075361 0.00076708 0.00078096 0.00079525 0.00080997 0.00082514 0.00084077 0.00085687 0.00087347 0.00089058 0.00090821 0.00092639 0.00094514 0.00096446 0.00098439 0.001005
41 0.00072929 0.00074222 0.00075555 0.00076928 0.00078343 0.00079801 0.00081305 0.00082854 0.00084451 0.00086098 0.00087797 0.00089548 0.00091354 0.00093217 0.00095139 0.00097122 0.00099168 0.0010128 0.0010346 0.0010571
42 0.00075503 0.00076895 0.00078331 0.00079812 0.00081338 0.00082913 0.00084537 0.00086212 0.00087941 0.00089724 0.00091564 0.00093463 0.00095423 0.00097447 0.00099536 0.0010169 0.0010392 0.0010622 0.0010859 0.0011105
43 0.00078072 0.00079567 0.0008111 0.00082702 0.00084345 0.0008604 0.0008779 0.00089597 0.00091462 0.00093388 0.00095377 0.00097431 0.00099553 0.0010174 0.0010401 0.0010635 0.0010877 0.0011127 0.0011385 0.0011652
44 0.00080633 0.00082235 0.00083889 0.00085597 0.0008736 0.00089181 0.00091063 0.00093006 0.00095015 0.00097089 0.00099234 0.0010145 0.0010374 0.0010611 0.0010856 0.0011109 0.0011371 0.0011642 0.0011922 0.0012212
45 0.00083186 0.00084898 0.00086666 0.00088494 0.00090383 0.00092335 0.00094352 0.00096438 0.00098595 0.0010083 0.0010313 0.0010552 0.0010799 0.0011054 0.0011318 0.0011591 0.0011874 0.0012167 0.0012471 0.0012784
46 0.00085728 0.00087553 0.00089441 0.00091392 0.0009341 0.00095498 0.00097657 0.00099891 0.001022 0.0010459 0.0010707 0.0010963 0.0011229 0.0011503 0.0011788 0.0012082 0.0012387 0.0012703 0.0013031 0.001337
47 0.00088257 0.000902 0.00092209 0.00094289 0.00096441 0.00098669 0.0010097 0.0010336 0.0010583 0.001084 0.0011105 0.0011379 0.0011664 0.0011959 0.0012264 0.0012581 0.0012909 0.001325 0.0013603 0.0013969
48 0.00090772 0.00092835 0.00094971 0.00097183 0.00099473 0.0010185 0.001043 0.0010685 0.0010949 0.0011222 0.0011506 0.00118 0.0012105 0.001242 0.0012748 0.0013088 0.0013441 0.0013806 0.0014186 0.001458
49 0.00093271 0.00095458 0.00097723 0.0010007 0.001025 0.0010503 0.0010764 0.0011035 0.0011317 0.0011608 0.0011911 0.0012225 0.001255 0.0012888 0.0013239 0.0013603 0.0013981 0.0014373 0.0014781 0.0015204
50 0.00095752 0.00098066 0.0010047 0.0010295 0.0010553 0.0010821 0.0011099 0.0011387 0.0011686 0.0011997 0.0012319 0.0012653 0.0013001 0.0013361 0.0013736 0.0014125 0.001453 0.001495 0.0015387 0.0015841
51 0.00098215 0.0010066 0.001032 0.0010583 0.0010856 0.001114 0.0011434 0.001174 0.0012057 0.0012387 0.001273 0.0013086 0.0013456 0.001384 0.001424 0.0014656 0.0015088 0.0015537 0.0016004 0.001649
52 0.0010066 0.0010324 0.0010591 0.0010869 0.0011158 0.0011458 0.001177 0.0012094 0.001243 0.001278 0.0013144 0.0013522 0.0013916 0.0014325 0.001475 0.0015193 0.0015654 0.0016134 0.0016633 0.0017153
53 0.0010308 0.0010579 0.0010861 0.0011155 0.0011459 0.0011776 0.0012106 0.0012448 0.0012805 0.0013175 0.0013561 0.0013962 0.001438 0.0014815 0.0015267 0.0015738 0.0016229 0.001674 0.0017273 0.0017828
54 0.0010548 0.0010833 0.001113 0.0011439 0.001176 0.0012094 0.0012442 0.0012804 0.001318 0.0013572 0.001398 0.0014406 0.0014848 0.001531 0.001579 0.0016291 0.0016813 0.0017357 0.0017924 0.0018516
55 0.0010785 0.0011085 0.0011397 0.0011721 0.0012059 0.0012411 0.0012778 0.0013159 0.0013557 0.0013971 0.0014402 0.0014852 0.0015321 0.001581 0.0016319 0.0016851 0.0017405 0.0017983 0.0018587 0.0019216
56 0.001102 0.0011334 0.0011661 0.0012002 0.0012358 0.0012728 0.0013113 0.0013515 0.0013934 0.0014371 0.0014827 0.0015302 0.0015797 0.0016314 0.0016854 0.0017417 0.0018005 0.0018619 0.001926 0.001993
57 0.0011252 0.0011581 0.0011924 0.0012282 0.0012655 0.0013043 0.0013449 0.0013872 0.0014313 0.0014773 0.0015253 0.0015755 0.0016278 0.0016824 0.0017395 0.0017991 0.0018614 0.0019264 0.0019945 0.0020655
58 0.0011481 0.0011826 0.0012185 0.001256 0.001295 0.0013358 0.0013784 0.0014228 0.0014692 0.0015176 0.0015682 0.001621 0.0016762 0.0017339 0.0017941 0.0018571 0.001923 0.0019919 0.002064 0.0021394
59 0.0011708 0.0012068 0.0012443 0.0012835 0.0013244 0.0013672 0.0014118 0.0014584 0.0015071 0.001558 0.0016112 0.0016668 0.001725 0.0017858 0.0018493 0.0019159 0.0019855 0.0020584 0.0021346 0.0022145
60 0.0011931 0.0012307 0.0012699 0.0013109 0.0013537 0.0013984 0.0014452 0.001494 0.0015451 0.0015985 0.0016544 0.0017129 0.0017741 0.0018381 0.0019051 0.0019753 0.0020488 0.0021257 0.0022064 0.0022909
61 0.0012152 0.0012544 0.0012953 0.001338 0.0013828 0.0014295 0.0014784 0.0015296 0.0015831 0.0016391 0.0016978 0.0017592 0.0018235 0.0018908 0.0019614 0.0020353 0.0021128 0.002194 0.0022792 0.0023685
62 0.0012369 0.0012777 0.0013204 0.001365 0.0014116 0.0014605 0.0015116 0.0015651 0.0016211 0.0016798 0.0017413 0.0018057 0.0018732 0.001944 0.0020182 0.002096 0.0021776 0.0022632 0.0023531 0.0024474
63 0.0012584 0.0013008 0.0013452 0.0013917 0.0014403 0.0014913 0.0015446 0.0016006 0.0016592 0.0017206 0.001785 0.0018525 0.0019233 0.0019976 0.0020755 0.0021573 0.0022432 0.0023334 0.0024281 0.0025276
64 0.0012795 0.0013236 0.0013697 0.0014181 0.0014688 0.0015219 0.0015776 0.0016359 0.0016971 0.0017614 0.0018287 0.0018994 0.0019736 0.0020515 0.0021333 0.0022192 0.0023095 0.0024044 0.0025041 0.002609
65 0.0013002 0.001346 0.001394 0.0014443 0.001497 0.0015523 0.0016103 0.0016712 0.0017351 0.0018022 0.0018726 0.0019465 0.0020242 0.0021058 0.0021916 0.0022818 0.0023766 0.0024763 0.0025812 0.0026916
66 0.0013207 0.0013682 0.001418 0.0014702 0.001525 0.0015826 0.001643 0.0017064 0.001773 0.001843 0.0019165 0.0019938 0.0020751 0.0021605 0.0022504 0.0023449 0.0024444 0.0025491 0.0026594 0.0027755
67 0.0013408 0.00139 0.0014416 0.0014959 0.0015528 0.0016126 0.0016754 0.0017415 0.0018109 0.0018839 0.0019606 0.0020413 0.0021262 0.0022156 0.0023096 0.0024086 0.0025129 0.0026228 0.0027386 0.0028607
68 0.0013605 0.0014115 0.001465 0.0015212 0.0015803 0.0016424 0.0017078 0.0017764 0.0018487 0.0019247 0.0020047 0.0020889 0.0021776 0.0022709 0.0023693 0.0024729 0.0025822 0.0026974 0.0028189 0.0029471
69 0.0013799 0.0014326 0.001488 0.0015463 0.0016076 0.0016721 0.0017399 0.0018113 0.0018864 0.0019655 0.0020488 0.0021366 0.0022291 0.0023266 0.0024294 0.0025378 0.0026522 0.0027728 0.0029002 0.0030347
70 0.0013989 0.0014534 0.0015107 0.0015711 0.0016346 0.0017014 0.0017718 0.0018459 0.001924 0.0020063 0.0020931 0.0021845 0.0022809 0.0023826 0.00249 0.0026032 0.0027228 0.0028491 0.0029826 0.0031236
71 0.0014175 0.0014738 0.0015331 0.0015956 0.0016613 0.0017306 0.0018035 0.0018805 0.0019616 0.0020471 0.0021373 0.0022325 0.0023329 0.002439 0.0025509 0.0026692 0.0027942 0.0029263 0.003066 0.0032137
72 0.0014358 0.0014939 0.0015552 0.0016197 0.0016877 0.0017595 0.0018351 0.0019148 0.001999 0.0020878 0.0021815 0.0022805 0.0023851 0.0024956 0.0026123 0.0027357 0.0028662 0.0030043 0.0031504 0.0033051
73 0.0014537 0.0015137 0.0015769 0.0016436 0.0017139 0.0017881 0.0018664 0.001949 0.0020363 0.0021284 0.0022258 0.0023287 0.0024374 0.0025524 0.0026741 0.0028028 0.002939 0.0030832 0.0032359 0.0033977
74 0.0014712 0.0015331 0.0015983 0.0016671 0.0017398 0.0018165 0.0018975 0.001983 0.0020735 0.002169 0.0022701 0.0023769 0.00249 0.0026096 0.0027362 0.0028703 0.0030123 0.0031628 0.0033223 0.0034915
75 0.0014884 0.0015521 0.0016193 0.0016903 0.0017653 0.0018446 0.0019283 0.0020169 0.0021105 0.0022095 0.0023143 0.0024252 0.0025426 0.002667 0.0027987 0.0029384 0.0030864 0.0032433 0.0034098 0.0035866
76 0.0015052 0.0015707 0.00164 0.0017132 0.0017906 0.0018724 0.0019589 0.0020505 0.0021474 0.0022499 0.0023585 0.0024736 0.0025955 0.0027247 0.0028616 0.0030069 0.0031611 0.0033247 0.0034984 0.0036828
77 0.0015215 0.001589 0.0016603 0.0017357 0.0018155 0.0018999 0.0019893 0.0020839 0.0021841 0.0022902 0.0024027 0.002522 0.0026484 0.0027825 0.0029249 0.003076 0.0032364 0.0034068 0.0035879 0.0037804
78 0.0015375 0.0016069 0.0016803 0.0017579 0.0018401 0.0019272 0.0020194 0.0021171 0.0022206 0.0023304 0.0024469 0.0025704 0.0027015 0.0028407 0.0029885 0.0031455 0.0033123 0.0034897 0.0036784 0.0038791
79 0.0015531 0.0016244 0.0016998 0.0017797 0.0018644 0.0019541 0.0020492 0.0021501 0.002257 0.0023705 0.002491 0.0026188 0.0027547 0.002899 0.0030524 0.0032154 0.0033889 0.0035735 0.0037699 0.0039791
80 0.0015684 0.0016415 0.0017191 0.0018012 0.0018884 0.0019808 0.0020788 0.0021828 0.0022932 0.0024105 0.002535 0.0026673 0.002808 0.0029575 0.0031166 0.0032859 0.0034661 0.003658 0.0038624 0.0040803
81 0.0015832 0.0016583 0.0017379 0.0018224 0.001912 0.0020071 0.0021081 0.0022153 0.0023292 0.0024503 0.0025789 0.0027158 0.0028613 0.0030162 0.0031811 0.0033568 0.0035439 0.0037433 0.0039559 0.0041827
82 0.0015976 0.0016746 0.0017564 0.0018432 0.0019353 0.0020331 0.0021371 0.0022476 0.002365 0.0024899 0.0026228 0.0027642 0.0029148 0.0030752 0.003246 0.0034281 0.0036223 0.0038294 0.0040504 0.0042864
83 0.0016117 0.0016906 0.0017745 0.0018636 0.0019582 0.0020588 0.0021658 0.0022796 0.0024006 0.0025294 0.0026666 0.0028127 0.0029683 0.0031342 0.0033111 0.0034998 0.0037012 0.0039162 0.0041459 0.0043913
84 0.0016253 0.0017062 0.0017922 0.0018836 0.0019808 0.0020842 0.0021942 0.0023113 0.002436 0.0025688 0.0027103 0.0028611 0.0030219 0.0031935 0.0033766 0.003572 0.0037808 0.0040038 0.0042423 0.0044973
85 0.0016386 0.0017214 0.0018096 0.0019033 0.0020031 0.0021093 0.0022224 0.0023428 0.0024712 0.002608 0.0027539 0.0029095 0.0030756 0.0032529 0.0034422 0.0036446 0.0038609 0.0040922 0.0043397 0.0046046
86 0.0016514 0.0017363 0.0018265 0.0019226 0.002025 0.002134 0.0022502 0.002374 0.0025061 0.002647 0.0027973 0.0029578 0.0031293 0.0033124 0.0035082 0.0037176 0.0039416 0.0041813 0.0044381 0.0047131
87 0.0016639 0.0017507 0.0018431 0.0019416 0.0020465 0.0021584 0.0022777 0.002405 0.0025408 0.0026858 0.0028406 0.0030061 0.003183 0.0033721 0.0035744 0.003791 0.0040228 0.0042712 0.0045374 0.0048229
88 0.001676 0.0017647 0.0018593 0.0019602 0.0020677 0.0021824 0.0023049 0.0024356 0.0025752 0.0027244 0.0028838 0.0030543 0.0032367 0.0034319 0.0036409 0.0038647 0.0041046 0.0043618 0.0046377 0.0049338
89 0.0016877 0.0017784 0.0018751 0.0019784 0.0020885 0.0022061 0.0023318 0.002466 0.0026094 0.0027628 0.0029269 0.0031025 0.0032905 0.0034918 0.0037076 0.0039388 0.0041869 0.0044531 0.0047389 0.0050459
90 0.001699 0.0017917 0.0018906 0.0019962 0.002109 0.0022295 0.0023583 0.0024961 0.0026434 0.002801 0.0029698 0.0031506 0.0033442 0.0035518 0.0037745 0.0040133 0.0042698 0.0045452 0.0048411 0.0051593
91 0.0017099 0.0018045 0.0019056 0.0020136 0.0021291 0.0022525 0.0023846 0.0025258 0.0026771 0.0028391 0.0030126 0.0031986 0.003398 0.003612 0.0038416 0.0040882 0.0043531 0.0046379 0.0049442 0.0052738
92 0.0017204 0.001817 0.0019203 0.0020307 0.0021488 0.0022752 0.0024105 0.0025553 0.0027105 0.0028768 0.0030552 0.0032465 0.0034518 0.0036722 0.0039089 0.0041634 0.004437 0.0047314 0.0050483 0.0053896
93 0.0017306 0.0018291 0.0019346 0.0020474 0.0021682 0.0022975 0.002436 0.0025845 0.0027437 0.0029144 0.0030976 0.0032943 0.0035055 0.0037325 0.0039765 0.0042389 0.0045214 0.0048256 0.0051533 0.0055065
94 0.0017403 0.0018408 0.0019485 0.0020637 0.0021871 0.0023194 0.0024613 0.0026134 0.0027765 0.0029517 0.0031398 0.0033419 0.0035592 0.0037928 0.0040442 0.0043148 0.0046063 0.0049204 0.0052592 0.0056247
95 0.0017497 0.0018522 0.001962 0.0020796 0.0022058 0.002341 0.0024861 0.0026419 0.0028092 0.0029888 0.0031819 0.0033895 0.0036129 0.0038532 0.0041121 0.004391 0.0046917 0.005016 0.005366 0.005744
